nm, %R
800.000000, 108.196700
799.000000, 108.403800
798.000000, 108.148700
797.000000, 108.533400
796.000000, 108.555900
795.000000, 109.040000
794.000000, 108.802800
793.000000, 108.828700
792.000000, 108.878400
791.000000, 108.947900
790.000000, 109.392400
789.000000, 109.838300
788.000000, 110.152700
787.000000, 110.367200
786.000000, 110.631000
785.000000, 110.731200
784.000000, 110.797300
783.000000, 110.925900
782.000000, 110.931900
781.000000, 111.111000
780.000000, 111.320700
779.000000, 111.183800
778.000000, 111.496400
777.000000, 111.628600
776.000000, 111.725200
775.000000, 111.915400
774.000000, 111.846300
773.000000, 112.100200
772.000000, 112.131100
771.000000, 111.955800
770.000000, 112.497900
769.000000, 112.561800
768.000000, 112.500000
767.000000, 112.751500
766.000000, 112.493400
765.000000, 112.902900
764.000000, 112.744300
763.000000, 113.207200
762.000000, 113.266700
761.000000, 113.580300
760.000000, 113.720500
759.000000, 113.595900
758.000000, 113.983300
757.000000, 113.950600
756.000000, 114.058200
755.000000, 114.388100
754.000000, 114.225100
753.000000, 114.603800
752.000000, 114.622300
751.000000, 114.724200
750.000000, 115.203000
749.000000, 115.243600
748.000000, 115.456000
747.000000, 115.641000
746.000000, 115.670800
745.000000, 115.890500
744.000000, 115.800600
743.000000, 116.339500
742.000000, 116.487200
741.000000, 116.609500
740.000000, 116.639900
739.000000, 116.687800
738.000000, 117.045700
737.000000, 116.938100
736.000000, 116.877800
735.000000, 117.496300
734.000000, 117.404000
733.000000, 117.454200
732.000000, 117.575100
731.000000, 117.956000
730.000000, 117.926300
729.000000, 117.888000
728.000000, 120.455700
727.000000, 120.478700
726.000000, 120.697800
725.000000, 120.766900
724.000000, 121.056300
723.000000, 121.089400
722.000000, 121.223900
721.000000, 121.471500
720.000000, 121.722300
719.000000, 121.788700
718.000000, 121.711500
717.000000, 121.527900
716.000000, 121.910000
715.000000, 121.555200
714.000000, 121.483300
713.000000, 121.486000
712.000000, 121.589400
711.000000, 121.258000
710.000000, 121.291100
709.000000, 121.400600
708.000000, 121.364000
707.000000, 121.373300
706.000000, 121.156300
705.000000, 121.028000
704.000000, 121.211100
703.000000, 121.016000
702.000000, 121.125100
701.000000, 120.894000
700.000000, 121.041900
699.000000, 120.793500
698.000000, 120.976400
697.000000, 120.928500
696.000000, 120.608200
695.000000, 120.807100
694.000000, 120.515300
693.000000, 120.625600
692.000000, 120.290400
691.000000, 120.372100
690.000000, 120.203500
689.000000, 119.964000
688.000000, 120.116200
687.000000, 120.112400
686.000000, 119.990200
685.000000, 120.005400
684.000000, 120.067300
683.000000, 120.096700
682.000000, 119.833800
681.000000, 119.817700
680.000000, 119.842300
679.000000, 119.577400
678.000000, 119.657300
677.000000, 119.518800
676.000000, 119.478900
675.000000, 119.378700
674.000000, 119.435400
673.000000, 119.474900
672.000000, 119.116500
671.000000, 119.131200
670.000000, 119.179000
669.000000, 119.225600
668.000000, 119.054500
667.000000, 118.966800
666.000000, 118.873800
665.000000, 119.096900
664.000000, 118.948800
663.000000, 118.775300
662.000000, 118.769300
661.000000, 118.778500
660.000000, 118.713900
659.000000, 118.559100
658.000000, 118.609200
657.000000, 118.602200
656.000000, 118.445000
655.000000, 118.530000
654.000000, 118.403500
653.000000, 118.345300
652.000000, 118.270900
651.000000, 118.332100
650.000000, 118.194400
649.000000, 118.216200
648.000000, 118.171800
647.000000, 118.238900
646.000000, 118.200300
645.000000, 118.204600
644.000000, 118.201300
643.000000, 118.162400
642.000000, 118.027000
641.000000, 118.116000
640.000000, 118.111900
639.000000, 118.061800
638.000000, 117.929000
637.000000, 117.922800
636.000000, 117.972400
635.000000, 117.893600
634.000000, 117.854400
633.000000, 117.883700
632.000000, 117.810700
631.000000, 117.814100
630.000000, 117.900600
629.000000, 117.776300
628.000000, 117.707500
627.000000, 117.718800
626.000000, 117.664900
625.000000, 117.707800
624.000000, 117.471000
623.000000, 117.480600
622.000000, 117.575900
621.000000, 117.502400
620.000000, 117.425300
619.000000, 117.445300
618.000000, 117.278700
617.000000, 117.395800
616.000000, 117.351700
615.000000, 117.312900
614.000000, 117.221400
613.000000, 117.306900
612.000000, 117.182300
611.000000, 117.095500
610.000000, 117.173000
609.000000, 117.017400
608.000000, 117.046000
607.000000, 117.003900
606.000000, 116.891700
605.000000, 116.898300
604.000000, 116.819600
603.000000, 116.750000
602.000000, 116.748300
601.000000, 116.693400
600.000000, 116.672300
599.000000, 116.526100
598.000000, 116.438300
597.000000, 116.422600
596.000000, 116.312600
595.000000, 116.296400
594.000000, 116.103800
593.000000, 116.237100
592.000000, 116.211300
591.000000, 116.021700
590.000000, 115.935000
589.000000, 115.884400
588.000000, 115.884100
587.000000, 115.727800
586.000000, 115.815900
585.000000, 115.778600
584.000000, 115.682100
583.000000, 115.571500
582.000000, 115.553600
581.000000, 115.498700
580.000000, 115.490000
579.000000, 115.382600
578.000000, 115.282700
577.000000, 115.304000
576.000000, 115.305700
575.000000, 115.136600
574.000000, 115.189600
573.000000, 115.103400
572.000000, 115.067400
571.000000, 115.026200
570.000000, 114.946400
569.000000, 115.004900
568.000000, 115.030600
567.000000, 114.947000
566.000000, 114.974500
565.000000, 114.878100
564.000000, 114.880600
563.000000, 114.882900
562.000000, 114.641300
561.000000, 114.664900
560.000000, 114.617500
559.000000, 114.574900
558.000000, 114.543100
557.000000, 114.554400
556.000000, 114.560600
555.000000, 114.637600
554.000000, 114.593200
553.000000, 114.516300
552.000000, 114.537500
551.000000, 114.474500
550.000000, 114.498300
549.000000, 114.517000
548.000000, 114.534500
547.000000, 114.513300
546.000000, 114.516700
545.000000, 114.482500
544.000000, 114.507100
543.000000, 114.482200
542.000000, 114.408800
541.000000, 114.504800
540.000000, 114.407300
539.000000, 114.436900
538.000000, 114.476000
537.000000, 114.414000
536.000000, 114.353100
535.000000, 114.441600
534.000000, 114.478000
533.000000, 114.440800
532.000000, 114.426600
531.000000, 114.367200
530.000000, 114.323400
529.000000, 114.419200
528.000000, 114.441100
527.000000, 114.434600
526.000000, 114.459700
525.000000, 114.344800
524.000000, 114.454200
523.000000, 114.319500
522.000000, 114.435300
521.000000, 114.281600
520.000000, 114.301800
519.000000, 114.339400
518.000000, 114.388800
517.000000, 114.362600
516.000000, 114.339500
515.000000, 114.358400
514.000000, 114.319000
513.000000, 114.391800
512.000000, 114.444500
511.000000, 114.491300
510.000000, 114.494900
509.000000, 114.576400
508.000000, 114.513700
507.000000, 114.553600
506.000000, 114.550400
505.000000, 114.730300
504.000000, 114.612600
503.000000, 114.459500
502.000000, 114.557500
501.000000, 114.452900
500.000000, 114.616800
499.000000, 114.539100
498.000000, 114.585500
497.000000, 114.464200
496.000000, 114.582100
495.000000, 114.583300
494.000000, 114.439300
493.000000, 114.497900
492.000000, 114.508500
491.000000, 114.506900
490.000000, 114.490200
489.000000, 114.401700
488.000000, 114.449000
487.000000, 114.434400
486.000000, 114.173400
485.000000, 114.336700
484.000000, 114.013400
483.000000, 114.162000
482.000000, 113.974800
481.000000, 113.974500
480.000000, 113.979400
479.000000, 114.021500
478.000000, 114.041500
477.000000, 113.988700
476.000000, 114.027600
475.000000, 113.943100
474.000000, 113.976500
473.000000, 113.937000
472.000000, 114.036300
471.000000, 114.074000
470.000000, 113.851700
469.000000, 113.826900
468.000000, 113.996900
467.000000, 113.865800
466.000000, 113.938200
465.000000, 113.878300
464.000000, 113.989600
463.000000, 113.891200
462.000000, 113.966900
461.000000, 113.915400
460.000000, 113.828600
459.000000, 113.920300
458.000000, 113.971500
457.000000, 113.844800
456.000000, 113.926500
455.000000, 113.864700
454.000000, 113.981400
453.000000, 114.037900
452.000000, 114.045900
451.000000, 114.025600
450.000000, 113.883900
449.000000, 114.064800
448.000000, 113.975600
447.000000, 114.189300
446.000000, 114.046000
445.000000, 114.035800
444.000000, 113.943800
443.000000, 114.077700
442.000000, 113.929300
441.000000, 114.222900
440.000000, 114.112800
439.000000, 114.033100
438.000000, 114.251200
437.000000, 114.301500
436.000000, 114.184300
435.000000, 114.139600
434.000000, 114.265500
433.000000, 114.286400
432.000000, 114.253900
431.000000, 114.346800
430.000000, 114.332700
429.000000, 114.323100
428.000000, 114.405700
427.000000, 114.255000
426.000000, 114.407000
425.000000, 114.337200
424.000000, 114.356700
423.000000, 114.492500
422.000000, 114.441300
421.000000, 114.578800
420.000000, 114.688600
419.000000, 114.793200
418.000000, 114.595300
417.000000, 114.814800
416.000000, 114.545400
415.000000, 114.827900
414.000000, 114.799900
413.000000, 114.850200
412.000000, 114.550700
411.000000, 114.623300
410.000000, 114.434800
409.000000, 114.484100
408.000000, 114.091100
407.000000, 113.994400
406.000000, 113.797300
405.000000, 113.837800
404.000000, 113.872100
403.000000, 113.666400
402.000000, 113.711500
401.000000, 113.341300
400.000000, 113.236100
399.000000, 113.023500
398.000000, 112.560000
397.000000, 112.567900
396.000000, 112.471200
395.000000, 112.403000
394.000000, 112.133300
393.000000, 111.905000
392.000000, 111.591600
391.000000, 111.688400
390.000000, 111.467500
389.000000, 111.196400
388.000000, 110.882900
387.000000, 110.923800
386.000000, 110.658000
385.000000, 110.347200
384.000000, 110.124700
383.000000, 109.873200
382.000000, 109.875000
381.000000, 109.678500
380.000000, 109.278900
379.000000, 101.805300
378.000000, 101.867200
377.000000, 101.764000
376.000000, 102.279000
375.000000, 102.294200
374.000000, 102.509700
373.000000, 102.579800
372.000000, 102.372900
371.000000, 102.573500
370.000000, 102.664100
369.000000, 102.648200
368.000000, 102.526500
367.000000, 102.733600
366.000000, 102.754300
365.000000, 102.762300
364.000000, 102.667700
363.000000, 102.644100
362.000000, 102.743600
361.000000, 102.577900
360.000000, 102.896800
359.000000, 102.802300
358.000000, 102.448300
357.000000, 102.526500
356.000000, 102.580400
355.000000, 102.530700
354.000000, 102.583000
353.000000, 102.601400
352.000000, 102.315200
351.000000, 102.382700
350.000000, 102.458600
349.000000, 102.294100
348.000000, 102.143600
347.000000, 101.664700
346.000000, 102.006000
345.000000, 101.727500
344.000000, 101.943400
343.000000, 101.780600
342.000000, 101.871200
341.000000, 101.668700
340.000000, 101.551200
339.000000, 101.746000
338.000000, 101.450200
337.000000, 101.663200
336.000000, 101.419300
335.000000, 101.438100
334.000000, 101.306400
333.000000, 101.204400
332.000000, 101.196600
331.000000, 101.306700
330.000000, 101.529400
329.000000, 101.020500
328.000000, 101.058100
327.000000, 101.076100
326.000000, 100.848700
325.000000, 100.884800
324.000000, 100.758900
323.000000, 100.478900
322.000000, 100.709100
321.000000, 100.280400
320.000000, 100.537400
319.000000, 100.513900
318.000000, 100.488400
317.000000, 100.552800
316.000000, 100.463700
315.000000, 100.368900
314.000000, 100.421800
313.000000, 100.452100
312.000000, 100.653700
311.000000, 100.193900
310.000000, 100.280800
309.000000, 100.238300
308.000000, 100.487900
307.000000, 100.314000
306.000000, 100.376500
305.000000, 99.919700
304.000000, 100.303400
303.000000, 100.518900
302.000000, 100.673400
301.000000, 100.259100
300.000000, 100.425100
299.000000, 100.394700
298.000000, 100.596800
297.000000, 100.452100
296.000000, 100.559500
295.000000, 100.526900
294.000000, 100.282100
293.000000, 100.671500
292.000000, 100.566600
291.000000, 100.709500
290.000000, 100.887800
289.000000, 100.798700
288.000000, 100.603400
287.000000, 100.637600
286.000000, 100.562500
285.000000, 100.635300
284.000000, 100.699100
283.000000, 100.535700
282.000000, 100.826300
281.000000, 100.611900
280.000000, 100.717800
279.000000, 100.706600
278.000000, 100.493600
277.000000, 100.626000
276.000000, 100.414100
275.000000, 100.755300
274.000000, 100.527300
273.000000, 100.417400
272.000000, 100.715900
271.000000, 100.505800
270.000000, 100.642300
269.000000, 100.421800
268.000000, 100.903600
267.000000, 100.664700
266.000000, 100.375900
265.000000, 100.479600
264.000000, 100.587700
263.000000, 100.901200
262.000000, 100.428900
261.000000, 100.772800
260.000000, 100.444300
259.000000, 100.710300
258.000000, 100.733800
257.000000, 100.815200
256.000000, 100.510500
255.000000, 100.570000
254.000000, 100.768400
253.000000, 100.721500
252.000000, 100.701300
251.000000, 100.659300
250.000000, 100.549400
249.000000, 100.556100
248.000000, 100.319700
247.000000, 100.819700
246.000000, 100.654200
245.000000, 100.491500
244.000000, 100.682500
243.000000, 100.468400
242.000000, 100.569300
241.000000, 100.548200
240.000000, 100.612200
239.000000, 100.479500
238.000000, 100.449700
237.000000, 100.724900
236.000000, 100.402000
235.000000, 100.455900
234.000000, 100.577000
233.000000, 100.333700
232.000000, 100.255100
231.000000, 100.289800
230.000000, 100.320900
229.000000, 100.389100
228.000000, 99.934900
227.000000, 99.938800
226.000000, 100.120900
225.000000, 100.019000
224.000000, 100.051100
223.000000, 100.060200
222.000000, 100.552800
221.000000, 100.577700
220.000000, 100.171700
219.000000, 100.046800
218.000000, 99.944000
217.000000, 100.297300
216.000000, 100.062200
215.000000, 100.022300
214.000000, 100.192600
213.000000, 100.231800
212.000000, 100.099500
211.000000, 99.991100
210.000000, 100.018400
209.000000, 100.354900
208.000000, 100.173700
207.000000, 100.162800
206.000000, 99.996300
205.000000, 100.180600
204.000000, 99.908800
203.000000, 100.264300
202.000000, 100.226000
201.000000, 100.260000
200.000000, 100.165300
