nm, %R
800.000000, 93.130290
799.000000, 92.859199
798.000000, 93.077772
797.000000, 92.761583
796.000000, 92.842213
795.000000, 92.377935
794.000000, 92.539346
793.000000, 92.577418
792.000000, 92.435782
791.000000, 92.349004
790.000000, 91.973208
789.000000, 91.731026
788.000000, 91.356907
787.000000, 91.153441
786.000000, 90.949011
785.000000, 90.887663
784.000000, 90.881276
783.000000, 90.709564
782.000000, 90.736208
781.000000, 90.632071
780.000000, 90.409511
779.000000, 90.653225
778.000000, 90.394129
777.000000, 90.252856
776.000000, 90.179924
775.000000, 89.932127
774.000000, 90.118493
773.000000, 89.850420
772.000000, 89.926524
771.000000, 90.006681
770.000000, 89.866033
769.000000, 89.546809
768.000000, 89.740889
767.000000, 89.489719
766.000000, 89.836826
765.000000, 89.379635
764.000000, 89.671584
763.000000, 89.278774
762.000000, 89.214041
761.000000, 89.028203
760.000000, 88.717250
759.000000, 89.060521
758.000000, 88.695625
757.000000, 88.664123
756.000000, 88.660438
755.000000, 88.398618
754.000000, 88.472061
753.000000, 88.239133
752.000000, 88.127616
751.000000, 88.188891
750.000000, 87.788339
749.000000, 87.738495
748.000000, 87.510653
747.000000, 87.463875
746.000000, 87.337167
745.000000, 87.272814
744.000000, 87.253002
743.000000, 86.944847
742.000000, 86.876240
741.000000, 86.817541
740.000000, 86.788912
739.000000, 86.789707
738.000000, 86.525349
737.000000, 86.607530
736.000000, 86.667442
735.000000, 86.323059
734.000000, 86.402848
733.000000, 86.260943
732.000000, 86.261887
731.000000, 86.095578
730.000000, 86.073081
729.000000, 86.120046
728.000000, 84.311660
727.000000, 84.281952
726.000000, 84.089934
725.000000, 83.961168
724.000000, 83.904183
723.000000, 83.827651
722.000000, 83.726559
721.000000, 83.562976
720.000000, 83.319244
719.000000, 83.372677
718.000000, 83.492603
717.000000, 83.550773
716.000000, 83.333033
715.000000, 83.629989
714.000000, 83.574779
713.000000, 83.680177
712.000000, 83.651864
711.000000, 83.876775
710.000000, 83.942433
709.000000, 83.749339
708.000000, 83.886655
707.000000, 83.880804
706.000000, 84.049364
705.000000, 84.204151
704.000000, 84.113171
703.000000, 84.191925
702.000000, 84.202366
701.000000, 84.330405
700.000000, 84.279328
699.000000, 84.452806
698.000000, 84.320082
697.000000, 84.280794
696.000000, 84.603949
695.000000, 84.420369
694.000000, 84.661450
693.000000, 84.626729
692.000000, 84.913260
691.000000, 84.938536
690.000000, 85.089037
689.000000, 85.129539
688.000000, 85.230302
687.000000, 85.165811
686.000000, 85.224877
685.000000, 85.254830
684.000000, 85.228451
683.000000, 85.242142
682.000000, 85.458610
681.000000, 85.355419
680.000000, 85.483089
679.000000, 85.601125
678.000000, 85.532851
677.000000, 85.604524
676.000000, 85.700655
675.000000, 85.812209
674.000000, 85.801027
673.000000, 85.778268
672.000000, 86.067086
671.000000, 86.080389
670.000000, 86.031683
669.000000, 85.977005
668.000000, 86.069069
667.000000, 86.296261
666.000000, 86.484743
665.000000, 86.229197
664.000000, 86.368084
663.000000, 86.443899
662.000000, 86.611523
661.000000, 86.619717
660.000000, 86.607381
659.000000, 86.778999
658.000000, 86.770588
657.000000, 86.804376
656.000000, 86.918908
655.000000, 86.971821
654.000000, 86.973527
653.000000, 86.974388
652.000000, 87.156519
651.000000, 87.048654
650.000000, 87.228075
649.000000, 87.146093
648.000000, 87.244419
647.000000, 87.271532
646.000000, 87.284635
645.000000, 87.331288
644.000000, 87.417736
643.000000, 87.356130
642.000000, 87.409661
641.000000, 87.465458
640.000000, 87.358937
639.000000, 87.442678
638.000000, 87.659354
637.000000, 87.556859
636.000000, 87.628462
635.000000, 87.704167
634.000000, 87.783146
633.000000, 87.737575
632.000000, 87.763760
631.000000, 87.858584
630.000000, 87.723642
629.000000, 87.965321
628.000000, 88.011384
627.000000, 88.018226
626.000000, 88.059141
625.000000, 88.093312
624.000000, 88.293536
623.000000, 88.253039
622.000000, 88.168068
621.000000, 88.277771
620.000000, 88.391769
619.000000, 88.393661
618.000000, 88.606286
617.000000, 88.453250
616.000000, 88.597779
615.000000, 88.496150
614.000000, 88.607370
613.000000, 88.606382
612.000000, 88.713569
611.000000, 88.781038
610.000000, 88.682461
609.000000, 88.819099
608.000000, 88.838064
607.000000, 88.918660
606.000000, 88.967993
605.000000, 88.879821
604.000000, 88.912734
603.000000, 89.180899
602.000000, 89.089006
601.000000, 89.110010
600.000000, 89.069042
599.000000, 89.310292
598.000000, 89.352558
597.000000, 89.352926
596.000000, 89.372003
595.000000, 89.435271
594.000000, 89.624887
593.000000, 89.543958
592.000000, 89.536302
591.000000, 89.625044
590.000000, 89.703800
589.000000, 89.866453
588.000000, 89.769002
587.000000, 89.886354
586.000000, 89.887399
585.000000, 90.023890
584.000000, 90.035969
583.000000, 90.028857
582.000000, 90.107275
581.000000, 90.205517
580.000000, 90.233354
579.000000, 90.285450
578.000000, 90.367158
577.000000, 90.448206
576.000000, 90.349393
575.000000, 90.501283
574.000000, 90.488638
573.000000, 90.617045
572.000000, 90.676595
571.000000, 90.749760
570.000000, 90.839992
569.000000, 90.748046
568.000000, 90.834874
567.000000, 90.786275
566.000000, 90.758473
565.000000, 90.757246
564.000000, 90.634015
563.000000, 90.599297
562.000000, 90.911565
561.000000, 90.913959
560.000000, 90.917094
559.000000, 91.072303
558.000000, 91.097238
557.000000, 91.110337
556.000000, 91.073807
555.000000, 91.047178
554.000000, 91.081932
553.000000, 91.050794
552.000000, 91.102477
551.000000, 91.153576
550.000000, 91.165720
549.000000, 91.143935
548.000000, 91.208239
547.000000, 91.149150
546.000000, 91.191328
545.000000, 91.203721
544.000000, 91.218186
543.000000, 91.169370
542.000000, 91.338603
541.000000, 91.303421
540.000000, 91.330885
539.000000, 91.247229
538.000000, 91.273367
537.000000, 91.355603
536.000000, 91.422707
535.000000, 91.286560
534.000000, 91.180576
533.000000, 91.227604
532.000000, 91.235604
531.000000, 91.268563
530.000000, 91.387240
529.000000, 91.241330
528.000000, 91.126352
527.000000, 91.128732
526.000000, 90.978659
525.000000, 91.041569
524.000000, 90.923356
523.000000, 90.978355
522.000000, 90.951044
521.000000, 90.941849
520.000000, 90.845988
519.000000, 90.746497
518.000000, 90.661323
517.000000, 90.527760
516.000000, 90.529257
515.000000, 90.508087
514.000000, 90.472975
513.000000, 90.318624
512.000000, 90.145092
511.000000, 90.059070
510.000000, 89.960426
509.000000, 89.975423
508.000000, 89.862698
507.000000, 89.804685
506.000000, 89.838447
505.000000, 89.533454
504.000000, 89.672950
503.000000, 89.607678
502.000000, 89.580866
501.000000, 89.699256
500.000000, 89.575176
499.000000, 89.571596
498.000000, 89.574946
497.000000, 89.662969
496.000000, 89.545313
495.000000, 89.629815
494.000000, 89.770472
493.000000, 89.702431
492.000000, 89.744691
491.000000, 89.739920
490.000000, 89.789868
489.000000, 89.973925
488.000000, 89.976671
487.000000, 90.063565
486.000000, 90.289419
485.000000, 90.179968
484.000000, 90.507519
483.000000, 90.380599
482.000000, 90.521501
481.000000, 90.418559
480.000000, 90.440466
479.000000, 90.315335
478.000000, 90.275645
477.000000, 90.248244
476.000000, 90.061617
475.000000, 90.076012
474.000000, 90.085588
473.000000, 89.996928
472.000000, 89.875855
471.000000, 89.828445
470.000000, 89.827029
469.000000, 89.763052
468.000000, 89.663315
467.000000, 89.715613
466.000000, 89.606822
465.000000, 89.493433
464.000000, 89.543783
463.000000, 89.530183
462.000000, 89.270042
461.000000, 89.318301
460.000000, 89.402663
459.000000, 89.268550
458.000000, 89.325051
457.000000, 89.375360
456.000000, 89.147740
455.000000, 89.326104
454.000000, 89.224996
453.000000, 89.136068
452.000000, 89.152438
451.000000, 89.102096
450.000000, 89.303844
449.000000, 89.043246
448.000000, 89.208655
447.000000, 88.886174
446.000000, 89.102994
445.000000, 89.185764
444.000000, 89.161411
443.000000, 89.217086
442.000000, 89.133173
441.000000, 88.937945
440.000000, 88.990280
439.000000, 89.107636
438.000000, 88.987337
437.000000, 88.829980
436.000000, 88.850131
435.000000, 88.964216
434.000000, 88.776927
433.000000, 88.777842
432.000000, 88.781477
431.000000, 88.745903
430.000000, 88.778888
429.000000, 88.739371
428.000000, 88.617263
427.000000, 88.782635
426.000000, 88.572028
425.000000, 88.641754
424.000000, 88.542079
423.000000, 88.270236
422.000000, 88.456615
421.000000, 88.348717
420.000000, 88.227339
419.000000, 88.150605
418.000000, 88.223775
417.000000, 88.022102
416.000000, 88.257058
415.000000, 88.112993
414.000000, 88.019937
413.000000, 87.922355
412.000000, 88.223555
411.000000, 88.114022
410.000000, 88.185674
409.000000, 88.123067
408.000000, 88.289972
407.000000, 88.460135
406.000000, 88.583121
405.000000, 88.522442
404.000000, 88.437642
403.000000, 88.685135
402.000000, 88.661217
401.000000, 88.865753
400.000000, 88.972245
399.000000, 89.051569
398.000000, 89.301173
397.000000, 89.445126
396.000000, 89.461658
395.000000, 89.529906
394.000000, 89.654991
393.000000, 89.928779
392.000000, 90.190211
391.000000, 90.104881
390.000000, 90.229260
389.000000, 90.390426
388.000000, 90.661049
387.000000, 90.617613
386.000000, 90.811871
385.000000, 91.107432
384.000000, 91.200248
383.000000, 91.315990
382.000000, 91.476041
381.000000, 91.478093
380.000000, 91.886997
379.000000, 98.122593
378.000000, 98.127464
377.000000, 98.175386
376.000000, 97.717811
375.000000, 97.749237
374.000000, 97.532624
373.000000, 97.641836
372.000000, 97.763178
371.000000, 97.540495
370.000000, 97.600914
369.000000, 97.480521
368.000000, 97.504353
367.000000, 97.440370
366.000000, 97.381521
365.000000, 97.457044
364.000000, 97.536713
363.000000, 97.454018
362.000000, 97.509723
361.000000, 97.605625
360.000000, 97.309440
359.000000, 97.406089
358.000000, 97.722656
357.000000, 97.628418
356.000000, 97.440447
355.000000, 97.510014
354.000000, 97.481746
353.000000, 97.460561
352.000000, 97.807364
351.000000, 97.709086
350.000000, 97.632019
349.000000, 97.737211
348.000000, 97.861932
347.000000, 98.375444
346.000000, 97.969237
345.000000, 98.207269
344.000000, 98.118073
343.000000, 98.194843
342.000000, 98.174165
341.000000, 98.385442
340.000000, 98.382885
339.000000, 98.198062
338.000000, 98.444064
337.000000, 98.139838
336.000000, 98.491510
335.000000, 98.553108
334.000000, 98.681228
333.000000, 98.673279
332.000000, 98.682367
331.000000, 98.606114
330.000000, 98.319502
329.000000, 98.708381
328.000000, 98.952682
327.000000, 98.868971
326.000000, 98.993938
325.000000, 98.978241
324.000000, 99.112436
323.000000, 99.393206
322.000000, 99.150126
321.000000, 99.717692
320.000000, 99.458709
319.000000, 99.331336
318.000000, 99.407593
317.000000, 99.393354
316.000000, 99.463587
315.000000, 99.388556
314.000000, 99.311305
313.000000, 99.341776
312.000000, 99.153335
311.000000, 99.515539
310.000000, 99.573797
309.000000, 99.580998
308.000000, 99.311559
307.000000, 99.523397
306.000000, 99.346759
305.000000, 99.892514
304.000000, 99.412183
303.000000, 99.320128
302.000000, 99.238031
301.000000, 99.452917
300.000000, 99.324571
299.000000, 99.461227
298.000000, 99.282582
297.000000, 99.296978
296.000000, 99.289774
295.000000, 99.233141
294.000000, 99.393411
293.000000, 99.141465
292.000000, 99.282267
291.000000, 99.247142
290.000000, 99.102567
289.000000, 99.147906
288.000000, 99.296545
287.000000, 99.217688
286.000000, 99.408129
285.000000, 99.223632
284.000000, 99.097013
283.000000, 99.209535
282.000000, 98.886203
281.000000, 99.187869
280.000000, 99.134413
279.000000, 99.140473
278.000000, 99.398867
277.000000, 99.306342
276.000000, 99.352382
275.000000, 99.125406
274.000000, 99.257714
273.000000, 99.347324
272.000000, 99.134198
271.000000, 99.373171
270.000000, 99.100478
269.000000, 99.519825
268.000000, 98.784583
267.000000, 99.053988
266.000000, 99.272335
265.000000, 99.375296
264.000000, 99.080802
263.000000, 98.815277
262.000000, 99.191567
261.000000, 98.951800
260.000000, 99.266758
259.000000, 98.906169
258.000000, 99.051560
257.000000, 98.862771
256.000000, 99.362654
255.000000, 99.128468
254.000000, 98.897373
253.000000, 98.847317
252.000000, 99.036457
251.000000, 99.121194
250.000000, 99.282741
249.000000, 99.284280
248.000000, 99.384468
247.000000, 99.033125
246.000000, 99.272658
245.000000, 99.379649
244.000000, 99.170859
243.000000, 99.439824
242.000000, 99.303267
241.000000, 99.420377
240.000000, 99.344513
239.000000, 99.478501
238.000000, 99.465006
237.000000, 99.213104
236.000000, 99.682974
235.000000, 99.371963
234.000000, 99.473041
233.000000, 99.629736
232.000000, 99.675029
231.000000, 99.630072
230.000000, 99.652714
229.000000, 99.693293
228.000000, 100.069745
227.000000, 100.087754
226.000000, 99.849582
225.000000, 100.096082
224.000000, 99.922739
223.000000, 99.919948
222.000000, 99.519357
221.000000, 99.435163
220.000000, 99.806333
219.000000, 99.886653
218.000000, 100.045425
217.000000, 99.695904
216.000000, 99.947033
215.000000, 99.943213
214.000000, 99.760661
213.000000, 99.809541
212.000000, 99.869030
211.000000, 99.983098
210.000000, 99.973805
209.000000, 99.571820
208.000000, 99.702317
207.000000, 99.898266
206.000000, 100.050202
205.000000, 99.675286
204.000000, 100.023622
203.000000, 99.571133
202.000000, 99.703271
201.000000, 99.601337
200.000000, 99.694605
